Tiempo (horas),Temperatura_Salon_1 (C),Potencia_Salon_1 (W),Temperatura_Salon_2 (C),Potencia_Salon_2 (W),Temperatura_Salon_3 (C),Potencia_Salon_3 (W),Temperatura_Salon_4 (C),Potencia_Salon_4 (W)
0.0,8.0,1591.8918918918919,8.0,1563.9639639639638,8.0,1536.036036036036,8.0,1508.1081081081081
0.001001001001001001,8.076500815830908,1634.2132227319091,8.075162599285765,1577.4009947477875,8.07382042835262,1521.5939412268706,8.072482211807474,1466.7918412934328
0.002002002002002002,8.154569108880882,1676.8837347064384,8.150524581042253,1590.2814101354822,8.146508479278035,1506.7126577250733,8.142559984342038,1426.122197433006
0.003003003003003003,8.234204142188851,1719.8202908056617,8.226058347016446,1602.5802046210624,8.218050284040645,1491.4345815884558,8.210286034407503,1386.1649229848201
0.004004004004004004,8.315401038366772,1762.9373219477832,8.301735502184446,1614.27722704509,8.28843439855632,1475.8051080476775,8.275715529989174,1346.9803429594485
0.005005005005005005,8.39815070785777,1806.1473009996662,8.377527090531915,1625.357298622482,8.357651913146476,1459.872154540887,8.338905815907848,1308.623245836965
0.006006006006006006,8.482439802361739,1849.3612370783374,8.453403832719257,1635.8102696235242,8.425696537533035,1443.6856702030439,8.39991613798041,1271.1428230950946
0.007007007007007008,8.568250693924082,1892.4891831825535,8.529336362494732,1645.6310143171,8.492564660689471,1427.2971404594168,8.458807368000848,1234.5826620409302
0.008008008008008008,8.65556147999399,1935.4407500373113,8.605295458918372,1654.8193651172473,8.55825538574125,1410.7590951044917,8.515641731922237,1198.9807897409498
0.009009009009009009,8.74434601439316,1978.125619040529,8.681252271563556,1663.3799881472114,8.622770540505377,1394.1246277685004,8.570482543496663,1164.3697650437591
0.01001001001001001,8.834573963802997,2020.4540473766235,8.757178536037328,1671.322203608704,8.686114664638758,1377.446934010533,8.623393945474117,1130.7768150041395
0.011011011011011011,8.926210889034216,2062.3373586976763,8.833046777370113,1678.659755383087,8.748294974687832,1360.7788744619259,8.67444066026366,1098.2240114573108
0.012012012012012012,9.019218244837683,2103.688415039348,8.908830461848044,1685.4105345645794,8.809321263355725,1344.1725682202712,8.723687739548476,1066.7284821758014
0.013013013013013013,9.11355382937994,2144.422057320494,8.984504286396408,1691.5962652882183,8.869205966837445,1327.679022102945,8.771200378197754,1036.3026552883437
0.014014014014014016,9.209171603231121,2184.4555203401374,9.060044211499203,1697.242155868433,8.927963925789822,1311.3477975730332,8.81704365938237,1006.9545262183962
0.015015015015015015,9.306021968427265,2223.7088111493213,9.135427640062826,1702.3765243002813,8.985612331567832,1295.2267187391806,8.861282373444139,978.6879458112164
0.016016016016016016,9.404051952343474,2262.10504941226,9.210633533479747,1707.0304044659827,9.042170608167769,1279.3616225384787,8.903980836325438,951.5029235832782
0.01701701701701702,9.503205406326662,2299.5707674695454,9.285642507226841,1711.2371398578305,9.097660283928315,1263.7961514828394,8.945202723953924,925.3959411897844
0.018018018018018018,9.60342321685553,2336.036168685466,9.360436905789618,1715.0319713801093,9.152104855176235,1248.5715884605158,8.985010922827941,900.3602714739086
0.01901901901901902,9.704643526962506,2371.4353435056037,9.435000857022589,1718.4516253996305,9.205529643943853,1233.7267322947807,9.023467396836484,876.3862987999855
0.02002002002002002,9.80680196564554,2405.7064434485324,9.50932030634599,1721.5339077021515,9.257961651784461,1219.2978120837568,9.060633070153312,853.4618367655596
0.021021021021021023,9.909831883046783,2438.791813987975,9.583383031442064,1724.3173084077832,9.309429411585569,1205.318437786314,9.096567725871507,831.5724398179282
0.022022022022022022,10.013664589241687,2470.638087934975,9.657178638339955,1726.840622230135,9.359962839124607,1191.819584080831,9.131329919892966,810.7017057540593
0.02302302302302302,10.118229594599875,2501.196241492315,9.730698539970879,1729.1425877588124,9.409593085943738,1178.8296042042746,9.16497690945824,790.8315665445984
0.024024024024024024,10.223454849809805,2530.421615618978,9.803935918428342,1731.2615487281716,9.45835239493686,1166.374270272402,9.197564595595628,771.9425653804483
0.025025025025025023,10.329266983815252,2558.2739057077147,9.87688567228455,1733.2351395298535,9.506273959853216,1154.4768364789272,9.229147478683977,754.0141182835046
0.026026026026026026,10.435591538086442,2584.7171228439065,9.9495443503952,1735.0999965521673,9.553391789732173,1143.1581215611575,9.259778626260363,737.0247590427687
0.02702702702702703,10.542353195833215,2609.719530082208,10.021910073671679,1736.891496302036,9.599740579096649,1132.4366069893272,9.289509652160108,720.9523666264284
0.02802802802802803,10.649476004953483,2633.2535572548,10.093982446315515,1738.6435206971992,9.645355584551385,1122.3285474734128,9.318390706051272,705.7743745745892
0.02902902902902903,10.756883593707546,2655.2956978189327,10.165762457999245,1740.3882494166337,9.690272508262234,1112.8480905714036,9.346470472416309,691.4679621930309
0.03003003003003003,10.864499378291958,2675.826391171356,10.237252378442692,1742.155978770836,9.734527388632813,1104.0074024138921,9.37379617803861,678.0102276439164
0.031031031031031032,10.972246761673686,2694.8298937129416,10.308455645779686,1743.9749662029499,9.778156498350192,1095.8167968195196,9.40041360706888,665.3783432645893
0.03203203203203203,11.080049323214817,2712.2941417492416,10.379376750040212,1745.8712992561307,9.821196249840224,1088.2848653533613,9.426367122773692,653.5496936412667
0.03303303303303303,11.187830998781244,2728.2106090722973,10.450021112991626,1747.8687876390895,9.86368310805808,1081.4186061662208,9.451699695104457,642.5019971223935
0.03403403403403404,11.295516251174455,2742.574161796181,10.520394965492962,1749.988876885793,9.905653510439652,1075.2235497389236,9.476452933267225,632.2134115791016
0.035035035035035036,11.403030230858517,2755.3829127232743,10.590505223422287,1752.2505820307013,9.947143793754755,1069.7038799353784,9.500667122520902,622.6626253106465
0.036036036036036036,11.510298927068757,2766.6380772091397,10.660359363141277,1754.6704397006133,9.988190127533034,1064.862549036125,9.524381264481871,613.8289340541223
0.03703703703703704,11.61724930948783,2776.3438321792883,10.729965297366418,1757.2624770506238,10.028828453677036,1060.7013856764088,9.547633120265498,605.6923050936794
0.03803803803803804,11.723809460756698,2784.5071796380707,10.799331252224608,1760.0381960368882,10.069094431833516,1057.2211948467016,9.570459255848068,598.2334294783398
0.03903903903903904,11.82990870015318,2791.13781570474,10.868465646184353,1763.0065716151119,10.109023390062184,1054.421849327395,9.592895089085859,591.4337633527531
0.04004004004004004,11.935477698820824,2796.248005919349,10.937376971473334,1766.1740625732873,10.148650280319933,1052.3023721222826,9.614974937879994,585.2755593850812
0.04104104104104104,12.040448586964516,2799.852467285925,11.006073678520133,1769.5446338430113,10.188009638266898,1050.8610096273947,9.636732069026065,579.741889243669
0.042042042042042045,12.144755053450698,2801.9682572655456,11.074564063892758,1773.1197892791563,10.227135546897161,1050.0952954232964,9.65819874733561,574.8166580320014
0.043043043043043044,12.24833243825596,2802.614669700139,11.142856162149503,1776.898614046659,10.266061603500692,1050.002104711087,9.679406284662244,570.4846115421152
0.044044044044044044,12.351117818207186,2801.8131374408113,11.210957641969214,1780.8778259004632,10.30482088947325,1050.5776995264112,9.700385088507531,566.7313371323144
0.04504504504504504,12.45305008643743,2799.587141273705,11.278875706886648,1785.051834785442,10.343445942505852,1051.8177649632955,9.72116470992193,563.543258977558
0.04604604604604604,12.554070025964604,2795.962124582267,11.346617000925713,1789.4128103135865,10.381968730705381,1053.717436722268,9.741773890452025,560.9076283818788
0.04704704704704705,12.654120528607061,2790.9654092712562,11.414187544414876,1793.9507584256855,10.420420639669052,1056.2713215860929,9.762240591172763,558.8125107169658
0.04804804804804805,12.753146213354421,2784.6261271798785,11.481592580728531,1798.6536004699647,10.458832415882595,1059.4735064715649,9.782592085740779,557.2467658785928
0.04904904904904905,12.851093921242388,2776.97514380676,11.548836562910385,1803.5072643583305,10.497234176809703,1063.3175636151145,9.802854956118942,556.2000282197957
0.050050050050050046,12.947912625652059,2768.0449881740938,11.615923061156176,1808.495781199183,10.535655378072056,1067.7965477889773,9.823055149127388,555.6626828377457
0.051051051051051045,13.04355348133766,2757.8697842530464,11.682854696597236,1813.6013889893968,10.5741247914102,1072.90298724915,9.843218015954289,555.6258395084069
0.05205205205205205,13.137969869214274,2746.485183021888,11.749633081356901,1818.8046433449495,10.612670482457888,1078.628869004099,9.86336834981859,556.0813046290634
0.05305305305305305,13.23111743702411,2733.9282942526206,11.81625876507855,1824.0845352487015,10.651319788088337,1084.9656190151454,9.88353042170927,557.0215514835323
0.05405405405405406,13.322954135956083,2720.2376171671217,11.88273118811864,1829.4186157723716,10.690099293125149,1091.9040779574914,9.903728014140409,558.439689103016
0.055055055055055056,13.413440253252123,2705.452969168293,11.949048641591805,1834.7831276889226,10.729034806245096,1099.434473185643,9.92398445287398,560.3294299571413
0.05605605605605606,13.502538440797304,2689.6154119332973,12.015208234447236,1840.153143832797,10.76815133493472,1107.5463875591556,9.944322636573098,562.6850566747506
0.05705705705705706,13.59021373965621,2672.76717425261,12.081205867744226,1845.502711990563,10.80747305939717,1116.2287257944904,9.964765064357957,565.5013879623363
0.05805805805805806,13.6764336004918,2654.951571107892,12.147036216281409,1850.8050060158403,10.847023305340448,1125.4696790166713,9.985333861244174,568.7737438595972
0.05905905905905906,13.761167899778401,2636.212918601076,12.212692717715377,1856.0324827622521,10.886824515612075,1135.2566881904434,10.00605080145026,572.4979104462277
0.06006006006006006,13.844388951705065,2616.5964444739443,12.278167569282541,1861.1570443195828,10.926898220679345,1145.5764071148183,10.026937329566104,576.6701040916548
0.061061061061061066,13.9260715156542,2596.1481940889835,12.343451732210712,1866.150204924106,10.967265007987372,1156.4146656671094,10.048014579579142,581.2869353198014
0.062062062062062065,14.006192799136343,2574.9149318757472,12.408534943875338,1870.9832617975862,11.007944490260106,1167.7564339827024,10.069303391758364,586.345372343964
0.06306306306306307,14.08473245606339,2552.944038379344,12.473405737718501,1875.6274690537844,11.04895527284129,1179.5857882545051,10.09082432739964,591.8427043123665
0.06406406406406406,14.161672574788163,2530.2834032417236,12.538051465606747,1880.0542137424889,11.090314918336725,1191.8858787848294,10.11259768319259,597.776504230958
0.06506506506506507,14.236997677505977,2506.981314290314,12.602458342498467,1884.2351928539472,11.132039915586997,1204.6389010998764,10.13464349854696,604.1445917558627
0.06606606606606606,14.310694699447868,2483.0863434533367,12.666611486001443,1888.142590181983,11.174145643940125,1217.8260706537583,10.156981565134279,610.9449957109224
0.06706706706706707,14.382752966696177,2458.6472300442256,12.7304949658364,1891.7492517906828,11.216646338049376,1231.4276017971772,10.179631433426183,618.1759163679146
0.06806806806806807,14.453164169917121,2433.7127620935103,12.794091861282654,1895.0288587654502,11.259555052931919,1245.4226916417817,10.202612416884296,625.8356874992581
0.06906906906906907,14.521922332916152,2408.3316564937345,12.857384325325839,1897.956095889916,11.302883629171305,1259.789509417048,10.225943594072762,633.9227381993015
0.07007007007007007,14.589023776314928,2382.552438777617,12.920353655404304,1900.5068148635319,11.346642658672394,1274.5051918874149,10.249643808712843,642.4355544714357
0.07107107107107107,14.654467076374582,2356.4233233904674,12.982980370314971,1902.6581906709407,11.390841451258861,1289.5458453602068,10.273731667697401,651.372640578385
0.07207207207207207,14.718253019006564,2329.9920953408373,13.04524429274142,1904.388869733599,11.435488002393408,1304.8865547713413,10.298225537081779,660.7324801542223
0.07307307307307308,14.7803845491615,2303.305994117969,13.107124636926216,1905.6791085156885,11.480588962376764,1320.5014002862565,10.32314353607207,670.5134970800857
0.07407407407407408,14.840866715788028,2276.411600752323,13.168600100922987,1906.51090132094,11.526149607375135,1336.3634817968577,10.34850352903309,680.7140161298797
0.07507507507507508,14.899706612590318,2249.354728867031,13.229648962817821,1906.868096103694,11.572173812634794,1352.4449516316201,10.374323115540136,691.3322233976552
0.07607607607607608,14.956913314846648,2222.1803205246106,13.290249180266578,1906.7364972251967,11.618664028247274,1368.7170557254228,10.400619618501484,702.3661265247702
0.07707707707707707,15.012497812583025,2194.932347616328,13.350378492659383,1906.1039542130336,11.665621257830256,1385.150183418351,10.42741007038105,713.8135147522877
0.07807807807807808,15.066472940424264,2167.6537194730286,13.410014525195425,1904.960435725661,11.71304504048739,1401.7139259690143,10.45471119755355,725.6719188322952
0.07907907907907907,15.118853304468846,2140.38619729801,13.469134894128654,1903.2980880826744,11.760933436403004,1418.3771437784474,10.482539402828147,737.9385708408686
0.08008008008008008,15.169655206554506,2113.1703159368035,13.527717312432685,1901.1112778918775,11.809283016417766,1435.108042226111,10.510910746180057,750.6103639452089
0.08108108108108107,15.2188965662972,2086.045313407704,13.585739695127755,1898.396618483355,11.858088855915781,1451.8742559209109,10.539840923733713,763.6838121880298
0.08208208208208208,15.26659684129747,2059.0490685226932,13.643180263516737,1895.1529800452188,11.907344533334513,1468.6429410685805,10.569345245045476,777.1550103635084
0.08308308308308308,15.312776945914816,2032.2180468331933,13.70001764758934,1891.38148354219,11.957042133584805,1485.380875553593,10.59943860873864,791.0195940710236
0.08408408408408409,15.357459169054055,2005.5872550416004,13.75623098596998,1887.0854786821853,12.007172256721947,1502.0545662299887,10.630135476561552,805.2727000462263
0.08508508508508508,15.400667091265642,1979.190203916466,13.811800021951484,1882.2705063884541,12.057724031429979,1518.6303628204148,10.661449846044611,819.9089268746646
0.08608608608608609,15.442425501928978,1953.0588796349039,13.866705193934449,1876.9442464278065,12.108685132385427,1535.0745777440918,10.693395222283947,834.9222961931974
0.0870870870870871,15.48276031573277,1927.223723597851,13.920927729696496,1871.1164508192467,12.160041810966616,1551.3536109699812,10.725984585654802,850.3062146129214
0.08808808808808809,15.521698490431936,1901.7136203403788,13.974449726257154,1864.7988641274997,12.211778923633696,1567.4340791150646,10.759230361272557,866.0534364170569
0.0890890890890891,15.559267945273172,1876.5558933351072,14.02725422746072,1858.0051316378251,12.263879968977514,1583.28294778801,10.793144386161355,882.1560272390587
0.09009009009009009,15.595497480627321,1851.776308364426,14.079325295555876,1850.7506965842754,12.316327130677701,1598.8676661442994,10.827737875308305,898.6053289069989
0.09109109109109109,15.630416699140243,1827.3990840852928,14.130648076398387,1843.052687696903,12.369101326328103,1614.156302561747,10.86302138670724,915.3919256560572
0.09209209209209208,15.664055928690196,1803.4469093666235,14.181208857971534,1834.9297984057255,12.422182262034939,1629.1176803009707,10.899004785504015,932.5056119266801
0.0930930930930931,15.69644614741458,1779.9409669436852,14.230995121989244,1826.402159089903,12.475548492639591,1643.7215119849723,10.935697207363722,949.9353619814395
0.0940940940940941,15.72761891104272,1756.900962906031,14.27999558841772,1817.49120378923,12.529177487364427,1657.9385317162664,10.973107021188833,967.6693015884728
0.0950950950950951,15.757606282744712,1734.345161515079,14.32820025282207,1808.2195328019877,12.58304570062723,1671.740623649603,11.011241791326396,985.6946820333307
0.0960960960960961,15.786440765679309,1712.2904248338257,14.37560041651351,1798.6107725790591,12.637128647718272,1685.1009458534509,11.05010823941155,1003.9978567336644
0.0970970970970971,15.814155238396944,1690.7522566438631,14.422188709539627,1788.6894342900655,12.691400984984845,1697.9940483240384,11.089712206004162,1022.5642607420328
0.0980980980980981,15.840782893227393,1669.7448501231916,14.467959106623729,1778.480772384587,12.74583659412133,1710.395984061495,11.130058612184845,1041.3783934307264
0.0990990990990991,15.866357177755676,1649.281138761648,14.512906936218776,1768.0106444020507,12.800408670119777,1722.2844121778999,11.171151421286364,1060.4238046584014
0.10010010010010009,15.890911739464642,1629.372849998482,14.557028882896219,1757.3053731996554,12.855089812396768,1733.6386920808743,11.212993600945858,1079.6830847209892
0.1011011011011011,15.914480373598419,1610.0305610780667,14.600322983339456,1746.3916126709953,12.909852118578138,1744.4399678626273,11.255587085672614,1099.1378583883104
0.10210210210210209,15.937096974277951,1591.2637566343935,14.64278861625506,1735.296217921277,12.964667280393044,1754.6712421217258,11.298932740135248,1118.7687833226032
0.10310310310310311,15.95879548887796,1573.0808875322714,14.684426486552503,1724.0461207506248,13.019506681105476,1764.3174385517366,11.343030323380445,1138.555553165368
0.1041041041041041,15.979609875654079,1555.489430512609,14.725238604173944,1712.6682111775071,13.074341493892549,1773.365452745712,11.387878454203276,1158.4769055641725
0.10510510510510511,15.999574064589705,1538.4959482103245,14.765228257980462,1701.1892256121848,13.129142780567243,1781.804190786397,11.433474577895954,1178.510635391093
0.1061061061061061,16.018721921414297,1522.1061491358926,14.804399985118925,1689.6356421676637,13.183881590036583,1789.624595317327,11.479814934607681,1198.6336133791172
0.10710710710710711,16.037087214728324,1506.3249472350071,14.842759536305822,1678.0335834751331,13.238529055886902,1796.8196589177924,11.526894529552745,1218.8218103720674
0.10810810810810811,16.05470358615497,1491.156520664978,14.880313837469966,1666.4087272542856,13.293056492493848,1803.3844247332097,11.574707105306954,1239.0503273475267
0.1091091091091091,16.07160452341325,1476.6043694551358,14.917070948331736,1654.786224778194,13.347435489340313,1809.315974435734,11.623245116580772,1259.2934313309354
0.11011011011011011,16.087823336243897,1462.671371728566,14.95304001786509,1643.190627268376,13.401638002003374,1814.613403729908,11.672499707206724,1279.5245972731502
0.1111111111111111,16.10339313503354,1449.3598382047307,14.988231237673155,1631.645820160233,13.455636440418914,1819.277785720864,11.722460690154586,1299.7165559141727
0.11211211211211213,16.118346812015375,1436.6715647209776,15.022655793466308,1620.17496509378,13.509403753507916,1823.3121225837244,11.773116530632048,1319.841347601518
0.11311311311311312,16.1327170249208,1424.6078825324164,15.056325814958425,1608.8004494084769,13.562913509509341,1826.7212860835612,11.824454332399089,1339.8703819755456
0.11411411411411412,16.146536182934664,1413.1697061748446,15.089254324608778,1597.5438428556886,13.616139971678757,1829.5119475935428,11.876459827566327,1359.774503375924
0.11511511511511512,16.159836434804195,1402.357578698368,15.121455185559439,1586.4258611875973,13.669058168948608,1831.6924983496026,11.929117370081494,1379.524061764432
0.11611611611611612,16.172649658946447,1392.1717141015642,15.152943049092375,1575.4663362372423,13.72164396119135,1833.2729607606484,11.98240993309386,1399.088988900545
0.11711711711711711,16.185007455394384,1382.612036817427,15.183733301903366,1564.6841920704499,13.773874098775412,1834.2648916632415,12.036319110369492,1418.4388794488814
